x,y,Z,Log(Conductivity mS/m),conductivity
460743.36679999996,4276546.9545,-0.5,0.6965558218082292,4.9722828058831645
460742.07938,4276544.460899999,-0.5,0.713709522848262,5.172607472221821
460740.79202999995,4276541.9804,-0.5,0.7115224082481033,5.146623613100444
460739.50538999995,4276539.504000001,-0.5,0.6901934875159563,4.8999707496315414
460738.21929000004,4276537.0317,-0.5,0.6883474316257868,4.879186644975355
460737.54089,4276535.7472,-0.5,0.6860390984179358,4.853321914073611
460736.86756,4276534.4682,-0.5,0.6616832918562267,4.588632659281488
460736.19922,4276533.194700001,-0.5,0.6692727211560296,4.669525174807647
460735.54555000004,4276531.9497,-0.5,0.6689677770933516,4.666247573465978
460734.89335,4276530.7199,-0.5,0.6754044536911138,4.735921047887786
460734.24271,4276529.5055,-0.5,0.7171315628422396,5.2135262295418805
460733.80973,4276528.6959,-0.5,0.7334726672163553,5.413431768038002
460733.37704999995,4276527.877,-0.5,0.7514618903239674,5.642374269029068
460732.94419999997,4276527.0578,-0.5,0.7842827963328073,6.085311250161204
460732.51118000003,4276526.2383,-0.5,0.8270407221249559,6.714918131815045
460732.08121,4276525.4223,-0.5,0.8830115411900292,7.638560824565225
460731.64590999996,4276524.6021,-0.5,0.9630488149013686,9.184358232949844
460729.94849,4276521.301899999,-0.5,0.9818425183268045,9.59052801568894
460728.24020999996,4276517.9865,-0.5,0.9991243377639234,9.979857445294803
460726.53426,4276514.6692,-0.5,1.0073171220793906,10.169910292424369
460724.83056999993,4276511.3499,-0.5,1.0055241809901365,10.128011387839612
460723.13213,4276508.0367,-0.5,1.011389882612911,10.265731062773662
460721.43457000004,4276504.7246,-0.5,1.0107485146215756,10.250581775237983
460719.73769999994,4276501.413500001,-0.5,1.0043370956182853,10.100365635348412
460718.03341,4276498.097999999,-0.5,0.9933427713813321,9.84788053201605
460716.31828999997,4276494.7743,-0.5,0.972224650985435,9.380471125916817
460714.59234,4276491.4422,-0.5,0.9089126639114631,8.107979909749156
460714.11583,4276490.576300001,-0.5,0.8981749108542151,7.909971356791818
460713.63732000004,4276489.7118,-0.5,0.8913898261129737,7.787352362397822
460713.1569,4276488.8486,-0.5,0.9034989836615187,8.007537545758982
460712.67709,4276487.9855,-0.5,0.9230455228348775,8.376170767158044
460712.19507,4276487.1144,-0.5,0.9334620630212532,8.579501668238185
460711.71064999996,4276486.2353,-0.5,0.9437944256892603,8.786065279250598
460711.23104,4276485.359300001,-0.5,0.9522873572522228,8.95957392690747
460710.76443999994,4276484.4918,-0.5,0.9563068365699663,9.042881433084496
460710.31093,4276483.6327,-0.5,0.9636098992713378,9.19623158231464
460709.855,4276482.777,-0.5,0.9697774575020678,9.32776202297478
460709.3933499999,4276481.9258,-0.5,0.9850033917099223,9.660584235875064
460708.9259699999,4276481.0791,-0.5,1.0095085057162276,10.221355790677434
460708.46865,4276480.241699999,-0.5,1.0176410129918818,10.41456207742824
460708.01894999994,4276479.4147,-0.5,1.014886104686488,10.348707324606352
460707.5767,4276478.5981,-0.5,1.030339938201532,10.723583509864246
460707.12867999997,4276477.7937,-0.5,1.045449442720053,11.103232723694976
460706.66779,4276476.990499999,-0.5,1.0849208831256145,12.159644641655964
460706.19402,4276476.1885,-0.5,1.1305544743079268,13.506862361406835
460705.71375,4276475.3904,-0.5,1.171064325235814,14.827376835799324
460705.24231,4276474.601299999,-0.5,1.2030747720548074,15.961539318376103
460704.7797,4276473.8213,-0.5,1.2279394920906928,16.902054280258756
460704.32474999997,4276473.0223,-0.5,1.2500997690078863,17.786879751028668
460703.86167,4276472.199599999,-0.5,1.2763950299776778,18.89709428663507
460703.39029,4276471.3532,-0.5,1.3051655854839108,20.191360623684744
460702.90062,4276470.4865,-0.5,1.3231585540699393,21.045466363345135
460702.40597,4276469.5976,-0.5,1.339104540308942,21.832553864561223
460701.90632999997,4276468.6865,-0.5,1.3427087992148012,22.014498638217276
460701.40038999997,4276467.7491999995,-0.5,1.3365279073884822,21.703406633049006
460700.88177,4276466.7832,-0.5,1.317560712122527,20.77594142189093
460700.35056,4276465.7884,-0.5,1.2944650263037607,19.699945573412446
460699.81813,4276464.7742,-0.5,1.2546427246211869,17.97391669986971
460699.28574,4276463.768700001,-0.5,1.2004893598186075,15.866800449363486
460698.67776,4276462.6296999995,-0.5,1.1370653435583333,13.710880433239273
460697.81421,4276461.025599999,-0.5,1.0721768673946668,11.808014217524207
460696.96978000004,4276459.450200001,-0.5,1.025067275228263,10.594178236377978
460696.14446,4276457.903600001,-0.5,0.9811480355534337,9.575204003475307
460695.32605,4276456.3633,-0.5,0.9426442399800413,8.762827045508553
460694.51578,4276454.8333,-0.5,0.9105659131125332,8.138903759958547
460693.7137399999,4276453.313399999,-0.5,0.9034211455227257,8.00610249191368
460692.92076,4276451.8113,-0.5,0.9119671937188563,8.165206896652212
460692.1253699999,4276450.3175,-0.5,0.9490225572074414,8.8924730406528
460691.32759,4276448.8319999995,-0.5,0.9878518598223235,9.724154710648804
460690.60156,4276447.494,-0.5,1.0234876834694417,10.555715669299369
460690.12734,4276446.635199999,-0.5,1.0511859530484613,11.250866022372977
460689.64031999995,4276445.7584,-0.5,1.0523568064911735,11.28123916554055
460689.16632,4276444.892399999,-0.5,1.0403842235026004,10.97448687655149
460688.71764000005,4276444.059699999,-0.5,1.0334523179515394,10.80071031241346
460688.29426999995,4276443.2603,-0.5,1.0383846167088788,10.924073580125087
460687.87971,4276442.4804,-0.5,1.057249205500837,11.409042698853309
460687.47320999997,4276441.7123,-0.5,1.0790315149894143,11.995863491078842
460687.07469,4276440.9561,-0.5,1.0954466214862013,12.457951089649953
460686.68551000004,4276440.2057,-0.5,1.0996856296110598,12.58014450036968
460686.30708,4276439.4639,-0.5,1.1055876777340896,12.752275238319868
460685.93938999996,4276438.7308,-0.5,1.1047436396125259,12.72751564665636
460685.58099,4276438.0095,-0.5,1.107952771218687,12.82191138983017
460685.20605999994,4276437.2713,-0.5,1.1075891442712384,12.811180327453496
460684.81450000004,4276436.5161,-0.5,1.0977872623899796,12.525274785068646
460684.39184,4276435.735400001,-0.5,1.0756953098399789,11.90406555491819
460683.95449000003,4276434.943,-0.5,1.0306513680194571,10.73127608138911
460683.50237999996,4276434.1391,-0.5,0.978775423039002,9.523035932885985
460683.07292999997,4276433.359100001,-0.5,0.9187807242846061,8.29431880794489
460682.66486,4276432.6091,-0.5,0.9092448041415248,8.114183111631656
460682.27809,4276431.8891,-0.5,0.9044947504270596,8.02591859413946
460681.88749,4276431.1681,-0.5,0.9078251188501515,8.087701590590255
460681.49442999996,4276430.443,-0.5,0.9080933100491594,8.092697556105012
460681.09900000005,4276429.7137,-0.5,0.9310231937434189,8.531456755302173
460680.70719999995,4276428.9956,-0.5,0.9459943674807053,8.830684475161412
460680.3335,4276428.297099999,-0.5,0.967002764339105,9.26835722786745
460679.97801,4276427.6184,-0.5,0.991594265562131,9.8083118501988
460679.6412000001,4276426.9523,-0.5,1.0108669922377913,10.25337856454823
460679.28575,4276426.2634,-0.5,1.0495300341565814,11.20804934068094
460678.91156000004,4276425.5517,-0.5,1.0434902103080066,11.053255532968002
460678.52053999994,4276424.8160999995,-0.5,1.0465460771638542,11.131304858865091
460678.13772999996,4276424.0875,-0.5,1.0333551207675258,10.798293332218602
460677.76331,4276423.365900001,-0.5,1.0208424715737257,10.491618049220175
460677.38688,4276422.6427,-0.5,0.9996251195903312,9.991371784018472
460677.00253,4276421.9027,-0.5,0.9846524864198652,9.652781739869022
460676.61026999995,4276421.145900001,-0.5,0.9694464788654333,9.320655983264919
460676.21073000005,4276420.3773,-0.5,0.9559722236648206,9.035916805219214
460675.80351,4276419.604,-0.5,0.9461100951911778,8.83303792682277
460675.3885100001,4276418.8261,-0.5,0.9226858876558445,8.369237409983853
460674.96670000005,4276418.0427,-0.5,0.9632849002864787,9.189352268786857
460674.49226,4276417.1764,-0.5,0.980206248997403,9.554462253128047
460674.00839,4276416.3033,-0.5,0.9791308482272388,9.53083274445681
460673.51491,4276415.4234,-0.5,0.9765094283953226,9.473477508999125
460673.02222,4276414.5453,-0.5,0.980099766358988,9.552119926255223
460672.53024000005,4276413.6688,-0.5,0.9756734144128849,9.455258669147886
460672.0390500001,4276412.7941,-0.5,0.967945004637394,9.288487578188823
460671.54793,4276411.9161,-0.5,0.960326790564397,9.126973520983658
460671.05669999996,4276411.034700001,-0.5,0.9557848291260423,9.032018721622391
460670.56555000006,4276410.149900001,-0.5,0.9514747716187659,8.942825811062445
460670.07351,4276409.2626,-0.5,0.9051924997727697,8.03882361760071
460669.62448999996,4276408.4514,-0.5,0.8371717113260077,6.873401468026882
460669.17547,4276407.6401,-0.5,0.8013904747721904,6.329807094428318
460668.72654,4276406.8288,-0.5,0.7982778360296772,6.284602821085123
460668.27725,4276406.0142,-0.5,0.7832135597750153,6.070347592096745
460667.8275,4276405.1964,-0.5,0.7801972456135783,6.0283331561539155
460667.37739000004,4276404.3752999995,-0.5,0.778566941114231,6.005745729039034
460666.92859,4276403.5564,-0.5,0.77524445793008,5.959975273076903
460666.4812,4276402.7398,-0.5,0.7714677521873764,5.908370923227884
460666.03512,4276401.925399999,-0.5,0.7546097404437822,5.683419858834928
460665.5878,4276401.104900001,-0.5,0.7450740710822303,5.559990775900034
460665.13931999996,4276400.2782000005,-0.5,0.7501865895870825,5.625829805270164
460664.68958999997,4276399.445499999,-0.5,0.7739654453840678,5.9424487567458355
460664.23615000007,4276398.601899999,-0.5,0.7519709480576603,5.648991848606458
460663.77945,4276397.7507,-0.5,0.7468088193861263,5.5822440488166
460663.31950000004,4276396.8919,-0.5,0.7422756973867387,5.524280185199795
460662.86145,4276396.032,-0.5,0.7480883824590444,5.598715283114663
460662.40372,4276395.1654,-0.5,0.6971834501733268,4.9794737833087614
460661.94622,4276394.2922,-0.5,0.6981444941002108,4.990504989137647
460661.49737999996,4276393.427499999,-0.5,0.7144148965444762,5.18101555941368
460661.05967,4276392.5797,-0.5,0.7110624191059812,5.141175379715241
460660.63318,4276391.748799999,-0.5,0.7244125820172904,5.301668660079614
460660.20083,4276390.91,-0.5,0.7271862933918042,5.335637219721748
460659.76515,4276390.0681,-0.5,0.7319823046933678,5.394886406300126
460659.27479999996,4276389.1355,-0.5,0.8006772679707879,6.319420693450149
460658.78176999994,4276388.2074,-0.5,0.7940390523068679,6.223562457106603
460658.28091000003,4276387.2772,-0.5,0.7807916935000963,6.036590188377755
460657.77413,4276386.3475,-0.5,0.8260531899349562,6.699666581238576
460657.2616,4276385.4182,-0.5,0.8308892353269173,6.774687005124563
460656.73481,4276384.4742,-0.5,0.8227070267599561,6.648245170566806
460656.20383,4276383.5085,-0.5,0.8292523626168092,6.749201006639965
460655.66865,4276382.5211,-0.5,0.8344589492295802,6.830601501069553
460655.14627,4276381.5368,-0.5,0.8302962481007053,6.765443135697351
460654.62429999997,4276380.5641,-0.5,0.8383847173952352,6.892626055000645
460654.15409,4276379.6907,-0.5,0.7883306464686719,6.142294656561111
460653.68363,4276378.8213,-0.5,0.7971724376702569,6.268627126163875
460653.21672,4276377.9489,-0.5,0.8042142759670879,6.371097861098429
460652.75135000004,4276377.0709999995,-0.5,0.7929244375618097,6.207610192795562
460652.28744,4276376.1876,-0.5,0.7791082908271434,6.013236581504318
460651.82545999996,4276375.3065,-0.5,0.777417345014705,5.989869284881948
460651.35533999995,4276374.4346,-0.5,0.7645161123618672,5.814550039379228
460650.87708,4276373.572,-0.5,0.7452854814940083,5.562697985250626
460650.40329,4276372.7493,-0.5,0.7217690407648785,5.269495533879147
460649.90473999997,4276371.901699999,-0.5,0.6801270593443651,4.787701431987393
460649.45697,4276371.1324,-0.5,0.6360035077602324,4.325173244271808
460649.05999,4276370.4416000005,-0.5,0.5897206389628008,3.8879497117997768
460648.81207,4276369.8675,-0.5,0.5246559088469984,3.347001514294102
460648.63216000004,4276369.3903,-0.5,0.47561250404497474,2.989596001910119
460648.48231999995,4276368.9559,-0.5,0.46294723289591766,2.9036698349762218
460648.37954,4276368.6051,-0.5,0.4524791075392413,2.834517271026443
460648.32381999993,4276368.3379,-0.5,0.42048528419807985,2.6332087175028835
460648.31517,4276368.1544,-0.5,0.38832044561001616,2.4452341112522853
460648.34106999997,4276368.0226,-0.5,0.3867806478396429,2.43657984705239
460648.44305,4276367.9987,-0.5,0.4055247998170842,2.544045063340449
460648.54548,4276367.9795,-0.5,0.4059229055588227,2.546378188290099
460648.64872000006,4276367.9652,-0.5,0.41893869541446505,2.623848137397724
460648.65061,4276367.9247,-0.5,0.4462201944456629,2.7939600658912656
460648.63219,4276367.8778,-0.5,0.47179204244504447,2.9634120496079976
460648.63107,4276367.88,-0.5,0.4438402805920815,2.7786911674421666
460648.62986000004,4276367.8828,-0.5,0.42199674877989435,2.6423889757666195
460648.62866000005,4276367.8861,-0.5,0.4167436426556412,2.610619890775911
460648.63821999996,4276367.9006,-0.5,0.4287130475618071,2.683570737598154
460648.65854000003,4276367.9276,-0.5,0.4513922325971815,2.827432414689109
460648.68963000004,4276367.9671,-0.5,0.4697280286509511,2.9493616483117777
460648.76818,4276368.0801,-0.5,0.49223389361137376,3.1062320298774972
460648.89400000003,4276368.2663,-0.5,0.5080227112806872,3.2212372403734197
460649.067,4276368.5257,-0.5,0.5237116999348167,3.339732631370354
460649.27161,4276368.8579,-0.5,0.5344828241670767,3.423598474318023
460649.5082500001,4276369.2615,-0.5,0.5506605817732685,3.5535348728191245
460649.77684000006,4276369.7364,-0.5,0.5510650954182414,3.556846273385454
460650.07618000003,4276370.253500001,-0.5,0.5742615204933439,3.7519886893282344
460650.39535,4276370.8019,-0.5,0.6029423149676059,4.008134761634948
460650.73443,4276371.3817,-0.5,0.6256446765053796,4.2232294404736725
460651.10843,4276372.0355,-0.5,0.6562369820349231,4.531447805542474
460651.48066,4276372.7022,-0.5,0.6809131856035541,4.796375606869968
460651.85104,4276373.3818,-0.5,0.6897780612863065,4.895285902829579
460652.21348000003,4276374.0572999995,-0.5,0.699544055072262,5.0066133731571245
460652.58356999996,4276374.7291,-0.5,0.713843672312806,5.174205488619951
460652.96121000004,4276375.3972000005,-0.5,0.7298339482654337,5.36826502452812
460653.35309999995,4276376.0784,-0.5,0.7530925275472162,5.66359940615316
460653.76034999994,4276376.8019,-0.5,0.7593271512508958,5.745491033926703
460654.18312,4276377.5678,-0.5,0.757565265090168,5.722229409528009
460654.62062999996,4276378.3733,-0.5,0.7560423758324979,5.702199081810292
460655.05785999994,4276379.176,-0.5,0.7683273332244189,5.865801107650235
460655.49481000006,4276379.9759,-0.5,0.7816930110684694,6.04913129774709
460655.93467000005,4276380.782,-0.5,0.7924103883391352,6.200266950914906
460656.3837,4276381.611300001,-0.5,0.7989584186034472,6.2944591385941395
460656.84179999994,4276382.4638,-0.5,0.8048654432092605,6.380657646286827
460657.28859,4276383.3007,-0.5,0.8011287087448024,6.325993025221262
460657.71755999996,4276384.1052,-0.5,0.7964614831737538,6.258373570276108
460658.12870000006,4276384.8773,-0.5,0.79750922492704,6.273490214756787
460658.5220100001,4276385.617,-0.5,0.804318271008236,6.372623650501552
460658.89811000007,4276386.3269,-0.5,0.8057350942137389,6.3934473661730316
460659.42552000005,4276387.3273,-0.5,0.7745330960941187,5.950220996262905
460659.95359000005,4276388.3184,-0.5,0.7554147733778463,5.693964739168384
460660.47921,4276389.291100001,-0.5,0.749440341884091,5.616171248980384
460661.00220999995,4276390.245399999,-0.5,0.7486492685566719,5.605950627709511
460661.52418,4276391.2009000005,-0.5,0.7470782825582407,5.585708693200472
460662.06541,4276392.1963,-0.5,0.7625068497081002,5.78771116675885
460662.62588999997,4276393.2317,-0.5,0.7673823502068985,5.853051564595584
460663.20602000004,4276394.2985,-0.5,0.7764837565920004,5.977006891715925
460663.80581,4276395.3967,-0.5,0.7783111423112007,6.002209395299096
460664.42525,4276396.5264,-0.5,0.7857360890194733,6.105708819685881
460664.89436,4276397.3691,-0.5,0.8100309669961586,6.45700268497985
460665.45684,4276398.404,-0.5,0.8247784385060315,6.680030393924457
460666.02002999996,4276399.4579,-0.5,0.8404120967612542,6.9248775248470045
460666.5841,4276400.5307,-0.5,0.844673420387651,6.993159284949651
460667.14496,4276401.5896,-0.5,0.8473743354130168,7.036785866808584
460667.70271,4276402.6346,-0.5,0.845731804560665,7.010222534621095
460668.35284,4276403.827099999,-0.5,0.8603968820399482,7.250982918507945
460669.00302999996,4276405.0156,-0.5,0.8661269359429601,7.347285838425832
460669.64452,4276406.2045,-0.5,0.8752295590051008,7.502906925481941
460670.27739000006,4276407.3938,-0.5,0.880803728968412,7.599827397478008
460670.90310999996,4276408.5816,-0.5,0.8758210102704251,7.513131846738608
460671.43854999996,4276409.5868,-0.5,0.8684703847724683,7.387038878897458
460671.97629,4276410.5828,-0.5,0.8731610991258756,7.467257007929686
460672.51625,4276411.5697,-0.5,0.8806434635000396,7.597023389502995
460673.05847999995,4276412.5579,-0.5,0.9023297635717705,7.986008416642863
460673.60289000004,4276413.5476,-0.5,0.9170945413078185,8.262177888616444
460674.05399000004,4276414.3772,-0.5,0.9304385187856411,8.519978891402841
460675.13829999993,4276416.2676,-0.5,0.9754644944398154,9.450711253954276
460676.18267,4276418.0741,-0.5,1.0109033926161741,10.254237987166844
460677.1871999999,4276419.7967,-0.5,1.0442503136359125,11.072617908548903
460678.15181,4276421.4354,-0.5,1.0796787359646054,12.013754030606561
460679.06667,4276422.9927,-0.5,1.1124025905292463,12.95396115878303
460679.93186,4276424.4685,-0.5,1.1363377129234404,13.687928025873285
460680.74730000005,4276425.8628,-0.5,1.1595094019337222,14.438078605913415
460681.51785000006,4276427.1740999995,-0.5,1.1645668409990946,14.607195472342704
460682.2437,4276428.4023,-0.5,1.1757927678681799,14.989694021681185
460682.92466,4276429.5475,-0.5,1.1870524023988391,15.383402467505263
460682.93477,4276429.5692,-0.5,1.1809487253058213,15.168712684719607
460682.95593999996,4276429.6077,-0.5,1.1732716355419943,14.902929107567555
460682.98798000003,4276429.663,-0.5,1.1571968707734652,14.361403050335623
460683.06403,4276429.7994,-0.5,1.1414152122596792,13.848897861303744
460683.18406999996,4276430.0159,-0.5,1.1272837430626546,13.40552241191247
460683.34794000007,4276430.3127,-0.5,1.1115013673879615,12.92710770935298
460683.55571999995,4276430.6896,-0.5,1.0909967622321655,12.330956401756943
460683.80509000004,4276431.151,-0.5,1.0807231571295883,12.042680298502301
460684.09595,4276431.6969,-0.5,1.0624173402505388,11.545622146712827
460684.55791,4276432.5742,-0.5,1.0660854321067033,11.643550526331033
460685.053,4276433.515699999,-0.5,1.073239536865323,11.836942470262171
460685.58103999996,4276434.5213,-0.5,1.0817916681610766,12.072345835971774
460686.14615000004,4276435.5956,-0.5,1.0937308167792315,12.408829485027159
460686.71537,4276436.6742,-0.5,1.0943999164242515,12.427961992768529
460687.28853,4276437.7573,-0.5,1.080398743255674,12.033687889162767
460687.86804,4276438.8397,-0.5,1.063777664296444,11.581842755327513
460688.45399,4276439.921699999,-0.5,1.0703768587945814,11.759175141084
460689.04628999997,4276441.0031,-0.5,1.0754344584255666,11.896917732154037
460689.63307,4276442.0775,-0.5,1.0815255064165645,12.064949444023283
460690.08491000003,4276442.897899999,-0.5,1.0602402410838694,11.487889276963928
460690.53115,4276443.711300001,-0.5,1.0329004053681172,10.786993210177211
460690.97611,4276444.530300001,-0.5,1.0033039887040545,10.076367273276754
460691.41577,4276445.3504,-0.5,0.9804920446113988,9.560751815132392
460691.85003000003,4276446.171600001,-0.5,0.9719492275471864,9.37452404933903
460692.28449,4276446.9799999995,-0.5,0.975894370401992,9.46007044472603
460692.71683,4276447.7807,-0.5,0.987946991307904,9.726285003911721
